E (eV),sigma (barns)
1e-06,170.3605093885509
1.066733937734857e-06,164.96914678904147
1.137921293915314e-06,159.7484034884747
1.213859262690629e-06,154.6928799343934
1.2948648711459048e-06,149.79734745282207
1.3812763028320094e-06,145.05674284051207
1.4734543096198343e-06,140.46616312832478
1.5717837177731643e-06,136.02086051033686
1.676675034527701e-06,131.71623743342437
1.7885661618834618e-06,127.547841842243
1.9079242247652652e-06,123.51136257469152
2.0352475211835757e-06,119.6026249030936
2.171067602537267e-06,115.81758621648686
2.3159514927431547e-06,112.15233183955324
2.4705040554568255e-06,108.60307098386718
2.635370519267393e-06,105.16613282727315
2.811239171408467e-06,101.83796271733976
2.998844231231031e-06,98.61511849496036
3.198968915434538e-06,95.49426693430145
3.4124487078528897e-06,92.47218029541422
3.6401748474461376e-06,89.5457329859459
3.883098049059609e-06,86.71189832849596
4.142232472483898e-06,83.96774543027668
4.418659956385941e-06,81.31043615183684
4.713534534786907e-06,78.7372221717179
5.028087254942475e-06,76.2454421440022
5.363631316739246e-06,73.83251894581728
5.721567555063252e-06,71.49595701194693
6.1033902880286215e-06,69.23333975379356
6.510693555481454e-06,67.04232706002183
6.945177773823689e-06,64.92065287629951
7.408656834939568e-06,62.86612286163077
7.903065678861349e-06,60.876612118860415
8.430468371788967e-06,58.95006299699847
8.993066723187632e-06,57.08448296309595
9.59320947793825e-06,55.27794254146786
1.0233402121916423e-05,53.52857331813351
1.0916317341936148e-05,51.83456600840969
1.1644806183726854e-05,50.19475149059293
1.2421909954526187e-05,48.60719069218484
1.3250872919979539e-05,47.07039217611446
1.4135155848353956e-05,45.58271829144772
1.507845045861051e-05,44.14242824150193
1.6084694832653552e-05,42.748225908558695
1.7158089856100067e-05,41.398864975116005
1.830311675620613e-05,40.09254616454913
1.952455581016861e-05,38.828066492239316
2.0827506301905144e-05,37.60419113327968
2.2217407810628824e-05,36.41937125329084
2.3700062920093303e-05,35.27267133038502
2.5281661443315004e-05,34.16285404640959
2.6968806263906926e-05,33.0884871654041
2.876854090190597e-05,32.048811045009046
3.068837891917639e-05,31.04258161819228
3.273633528715248e-05,30.06850982992945
3.492095984787272e-05,29.12603486601651
3.7251373008002096e-05,28.21391626549084
3.973730381485612e-05,27.330991162007322
4.238913057338783e-05,26.476946539166537
4.521792417370702e-05,25.65043085089806
4.8235494310014675e-05,24.85039091673915
5.1454438783909244e-05,24.076625642872166
5.488819609789677e-05,23.327840851900948
5.855110155867244e-05,22.603100156189743
6.245844712439617e-05,21.902451442394135
6.66265452458115e-05,21.22443792402742
7.107279696773412e-05,20.568250988912197
7.581576457522117e-05,19.934116394246438
8.087524908770458e-05,19.320440373535497
8.62723729246145e-05,18.726609154606145
9.20296680876041e-05,18.15295379073742
9.817117022752184e-05,17.5978459315075
0.00010472251898884355,17.06080998838052
0.00011171106505048242,16.542234483837667
0.00011916598430985587,16.040529985507455
0.0001271183996869029,15.555379030491213
0.00013560151105656334,15.086892962637805
0.0001446507338521647,14.633473614529564
0.00015430384691835647,14.1958801267037
0.00016460115023085513,13.772858788057416
0.00017558563314144687,13.363739813569264
0.00018730315385064364,12.969412240474242
0.00019980263085725506,12.58784263521811
0.00021313624718414376,12.219662308843313
0.00022735966823277175,11.864309849243146
0.0002425322741760353,11.520448765431937
0.0002587174078595924,11.189750688824624
0.00027598263924661807,10.869928140838617
0.00029440004751000336,10.561307161299558
0.0003140465219496752,10.264214392440381
0.0003350040829913133,9.97683084644715
0.0003573602246065788,9.700665585384106
0.0003812082795843888,9.43414700850563
0.0004066478091781858,9.176785877043134
0.0004337850187558989,8.930003158417788
0.0004627332011878693,8.691390672960315
0.0004936132098237916,8.4621730532626
0.0005265539630332755,8.241730442668976
0.0005616929824163809,8.028593766726997
0.0005991769669310619,7.8253035643766395
0.0006391624053344006,7.628972623058302
0.0006818162294944479,7.440414461283448
0.0007273165113001462,7.259738548271132
0.0007758532060787836,7.085157684143498
0.0008276289456246352,6.919391883252163
0.000882859884149515,6.758866607005825
0.0009417766006869519,6.606269359573958
0.0010046250617173414,6.459461649133534
0.0010716676480328634,6.318795044785094
0.0011431842501291502,6.185076907153186
0.0012194734366967382,6.055753889271869
0.001300853701090572,5.934047248967614
0.0013876647909813085,5.815665433746485
0.0014802691267395086,5.705182857334412
0.0015790533144741758,5.597850002183706
0.0016844297600423152,5.497297272973616
0.0017968383907677212,5.399909566942582
0.001916748492056815,5.308810584122245
0.0020446606665791177,5.220906550680934
0.00218110892419152,5.13876822220744
0.002326662911331458,5.0592168370219355
0.002481930289186255,4.985559195097705
0.0026475592705670664,4.91389336672245
0.002824241326078436,4.848229923319949
0.0030127140708811643,4.78344392830261
0.0032137643441002787,4.725336598894865
0.0034282314937339707,4.668018841113785
0.003657010880777493,4.615516197303259
0.0039010576171909935,4.5652770937035445
0.004161390553316707,4.517408868791653
0.004439096531392171,4.473819601880035
0.004735334922917116,4.430650935415505
0.005051342468816766,4.392386782312121
0.005388438442608223,4.355370031315989
0.005748030158125357,4.319286616221447
0.006131618844795775,4.288075238117003
0.00654080591499826,4.257089394970003
0.006977299649665538,4.227254703697211
0.007442922330043758,4.201536014089471
0.007939617845382283,4.175973797427295
0.008469459808314586,4.150775009303766
0.009034660211810534,4.129949552570447
0.009637578663841089,4.109228582263682
0.010280732238308648,4.088611574149429
0.010966805983368697,4.070436263539598
0.011698664131013082,4.054049753741416
0.012479362054713113,4.037729211737832
0.013312159025043077,4.021474371959795
0.014200531816536818,4.007725634777412
0.015148189222583474,3.9952040256118417
0.016159087538959192,3.982721538559506
0.0172374470806362,3.970278051388531
0.018387769800823267,3.958593267474549
0.019614858085794294,3.9493832265804283
0.020923834803969792,3.9401946137157973
0.022320164692952345,3.9310273790263217
0.023809677173803584,3.92188147277366
0.02539859068780724,3.912963803348874
0.027093538657320542,3.9065546039715144
0.028901597179095115,3.900155902477274
0.03083031456568277,3.8937676816712523
0.0328877428582551,3.887389924386712
0.035082471442397886,3.881022613485034
0.037423662907219844,3.874665731855672
0.03992109129748053,3.870504954802558
0.04258518291843415,3.8663750000117165
0.04542705986374043,3.8622494520170876
0.048458586448165,3.858128306116475
0.051692418738916036,3.854011557612703
0.05514205739240302,3.849899201813605
0.058821904016999556,3.845791234032022
0.06274732129711574,3.8423815218447137
0.06693469712958668,3.840024040543056
0.07140151304013403,3.8376680056667625
0.07616641716552892,3.835313416328382
0.08124930210614048,3.8329602716410096
0.08667138797389225,3.830608570718284
0.0924553109823358,3.8282583126743877
0.09862521794868784,3.8259094966240466
0.10520686710236228,3.8235621216825306
0.11222773562085071,3.821216186965652
0.1197171343418968,3.819379763386672
0.12770633013086446,3.818305166330706
0.1362286764141647,3.8172308716167183
0.14531975242368955,3.816156879159644
0.1550175117335769,3.815083188874441
0.16536244070941822,3.8140098006760925
0.17639772753140454,3.8129367144796054
0.18816944249705556,3.81186393020001
0.20072673035625682,3.8107914477523614
0.21412201548157317,3.809719267051738
0.22841122073038256,3.8086473880132417
0.2436540009125466,3.807575810551999
0.2599139918382933,3.8065045345831603
0.2772590759860481,3.805433560021899
0.2957616658993257,3.8043628867834123
0.31549900649580886,3.803636829240449
0.33655349755070946,3.8033548501329446
0.35901303770070686,3.8030728919297
0.3829713914046285,3.802790954629167
0.40852858039285656,3.802509038229797
0.435791301239703,3.8022271427300374
0.4648733708020257,3.801945268128342
0.49589620138372115,3.8016634144231594
0.5289893076098157,3.801381581612941
0.5642908471262542,3.801099769696139
0.6019481973827274,3.8008179786712026
0.6421185709064758,3.8005362085365846
0.6849696716357454,3.800254459290735
0.7306803950529507,3.7999727309321054
0.779441575040495,3.799691023459149
0.8314567805772064,3.7994093368703155
0.8869431656014705,3.7991276711640576
0.9461323755890779,3.798846026338827
1.0092715146305717,3.798564402393075
1.0766241770454934,3.7982827993252557
1.148471547840289,3.798001217133819
1.2251135766041177,3.797719655817219
1.3068702297433477,3.797438115373907
1.3940828262825786,3.797156595802336
1.4871154628089538,3.7968750971009593
1.5863565335085896,3.796593619268229
1.692220351641039,3.796312162302598
1.8051488792211101,3.796030726202519
1.9256135721291987,3.795749310966446
2.0541173483530644,3.7954679165928327
2.1911966875781475,3.7946570321197832
2.337423870891817,3.7933374569774987
2.4934093699518804,3.792018340711613
2.6598043955937585,3.790699683162555
2.8373036165162113,3.789381484170807
3.0266480593956953,3.788063743576909
3.2286282025367337,3.7867464612214534
3.4440872759738235,3.785429636945092
3.673924781802074,3.7841132705885276
3.919100249433402,3.7827973619925217
4.180637241455762,3.7814819109978908
4.4596276268190955,3.780166917445505
4.7572361391878895,3.778852381176291
5.074705239490466,3.7775383020312305
5.413360302965375,3.776224679851362
5.774615152359826,3.7749115144777754
6.159977960380169,3.7735988057516203
6.571057546036271,3.7722865535140984
7.009570091165618,3.7709747576064685
7.477346305177596,3.7696634178700443
7.976339067929281,3.768352534146193
8.508631582640582,3.7670421062763397
9.076446072885357,3.765732134101962
9.682153059967076,3.7644226174645947
10.328281259410296,3.763113556205826
11.017528137883874,3.761804950167301
11.752771174629451,3.760496799190718
12.537079874409196,3.759189103117831
13.373728582124977,3.7578818617904504
14.266210152607384,3.7565750750504394
15.21825053264387,3.7552687427397187
16.23382431612278,3.7539628647002607
17.31717133723353,3.752657440774096
18.47281437099636,3.7513524708033077
19.705578015018006,3.750047954630036
21.020608831301583,3.7487438920964733
22.42339683219845,3.747440283044869
23.91979840020242,3.746137127317528
25.516060737271864,3.744834424756807
27.218847945751797,3.743532175205121
29.035268849778138,3.7422303785049364
30.972906673314068,3.7409290344987776
33.03985069871862,3.739628143029221
35.24473003801588,3.7383277039389005
37.59674965785467,3.737027717070501
40.10572880855496,3.735728182266766
42.782142017676215,3.7344290993704927
45.637162819247635,3.7331304682245303
48.68271040122284,3.7318322886717863
51.93149936590212,3.7305345605552196
55.397092811064006,3.729237283717847
59.09395895340977,3.7279404580027364
63.03753153071282,3.726644083253014
67.24427423484249,3.7253481593118565
71.73174944465613,3.7240526860224983
76.51869154570818,3.722757663228228
81.62508514287236,3.7214630907723865
87.07224849239923,3.720168968498372
92.88292250172499,3.718875296249634
99.08136566858666,3.71758207386968
105.69345535579873,3.7162893012020684
112.74679582449473,3.7149969780904155
120.27083347685145,3.713705104378389
128.29697978941476,3.7124136799097123
136.85874245025204,3.711122704528164
145.99186524739773,3.7098321780775745
155.73447729261352,3.7085421004018313
166.12725220342963,3.7072524713448742
177.21357790803586,3.705963290750699
189.03973778192233,3.704674558463353
201.65510387247443,3.7033862743269417
215.11234301821673,3.7020984381856206
229.4676367231941,3.700811049883602
244.78091570444403,3.699524109265153
261.11611009174624,3.698237616174592
278.54141632417634,3.696951570456294
297.1295818577334,3.695665971954687
316.95820887261215,3.694380820514254
338.1100782480682,3.69309611597953
360.6734951574032,3.6918118581951074
384.74265772584977,3.6905280470056288
410.41805029047094,3.689244682255794
437.80686290381755,3.6879617637903563
467.02343883273306,3.68667929145412
498.1897519205165,3.6853972650919484
531.4359158053252,3.684115684548754
566.9007271207433,3.682834549669506
604.7322449462655,3.6815538602992266
645.0884089267686,3.6802736162829923
688.137698641567,3.678993817465932
734.0598369757226,3.677714463693231
783.0465404301183,3.6764355548101273
835.3023195026788,3.6751570906619113
891.0453324821503,3.6738790710939297
950.5082962189512,3.67260149595158
1013.9394576752939,3.6713243650803173
1081.6036303107094,3.670047678325646
1153.783299629662,3.668771435533129
1230.7798025066634,3.667495636548378
1312.9145852124652,3.6662202812170626
1400.5305453932226,3.664945369384904
1493.9934636052562,3.663670900897676
1593.693530381776,3.6623968756012095
1700.0469752067147,3.661123293341385
1813.4978041964953,3.6598501539641397
1934.5196537440481,3.6585774573154617
2063.6177678638564,3.657305203241396
2201.3311074930325,3.656033391588038
2348.2346005542813,3.654762022201538
2504.9415421745025,3.6534910949281003
2672.106155079438,3.652220609613981
2850.4263208534317,3.6509505661054917
3040.6464934670685,3.649680964248996
3243.560807235818,3.6484118038909115
3460.016392185109,3.6471430848777087
3690.9169106627824,3.645874807055913
3937.226329963475,3.6446069702721
4199.9729467153065,3.6433395743729022
4480.253679829499,3.6420726192050044
4779.238649935595,3.6408061046151428
5098.17606442043,3.6395400304501098
5438.39742846479,3.638274396556748
5801.323103833379,3.6370092027819565
6188.468238624396,3.6357444489726842
6601.449092734883,3.6344801349759375
7041.989785449296,3.633216260638771
7511.929493320953,3.6319528258082974
8013.230128396886,3.630689830331678
8547.984528840423,3.62942727405613
9118.425196146562,3.628165156828925
9726.933615426178,3.6269034784973835
10376.05019766914,3.625642238908883
11068.48488549412,3.6243814379108517
11807.128466661916,3.6231210753507725
12595.064642583564,3.6218611510761796
13435.582902208263,3.6206016649346613
14332.192255035769,3.61934261677386
15288.635880587295,3.6180840064414688
16308.906755493343,3.616825833785235
17397.26432343799,3.6155680986529584
18558.252277555188,3.6143108008924925
19796.717529513367,3.6130539403517425
21117.83044448242,3.6117975168786685
22527.106426459828,3.6105415303212802
24030.428944069645,3.6092859805276443
25634.07409296515,3.608030867345876
27344.736797375856,3.6067761906241462
29169.55876018793,3.6055219502106794
31116.15827824363,3.6042681459537493
33192.66204733196,3.6030147777016857
35407.7390896527,3.601761845302869
37770.63694539372,3.6005093486057334
40291.220279513436,3.5992572874587654
42980.01206490798,3.5980056617105047
45848.23751389106,3.596754471209544
48907.8709413959,3.5955037158045267
52171.68575554354,3.594253395344151
55653.3077842764,3.5930035096771658
59367.27216069126,3.5917540586523753
63329.084004551274,3.590505042118633
67555.2831533164,3.5892564599248473
72063.5132129306,3.588008311919978
76872.5952166372,3.586760597953039
82002.6061993413,3.5855133178730934
87474.96301554433,3.5842664715292605
93312.5117507824,3.5830200587707113
99539.62309984244,3.581774079446666
106182.29410993824,3.5734637205280992
113268.25671361538,3.558109810283745
120827.09350447785,3.542821870363489
128890.36123908915,3.5275996173161697
137491.72258064203,3.5124427689085183
146667.08663439716,3.4973510441199194
156454.7588616096,3.4823241631372084
166895.60099780266,3.4673618473494745
178033.2016430112,3.451536381837259
189914.05823619355,3.4350834509605486
202587.77117350211,3.4187089486166675
216107.25088083764,3.4042806453217693
230528.93870517108,3.3914458364426303
245913.04254680415,3.3790669929263095
262323.78821631236,3.375817062599788
279829.68756551214,3.3849577458970894
298503.82451187295,3.412791931641875
318424.1601504656,3.483497950859688
339673.85822722025,3.6402480598955944
362341.63233231497,4.047409333611648
386522.11626312695,5.173130050375916
412316.25910297484,9.577366157351399
439831.74666502286,15.667273334662918
469183.45106078085,6.975991404177689
500493.91027009534,4.402006922567657
533893.8397147361,3.599278736822535
569522.6779712819,3.2274980068424046
607529.1689016077,3.0180090521061067
648071.9826311984,2.878387322333355
691320.3779678128,2.778030290431051
737454.9090259562,2.708450883789068
786668.1790071573,2.678562387041173
839165.6442830161,2.743649740306615
895166.472137832,3.140185958419668
954904.4557518078,5.275063501960053
1018628.9902446886,7.295933293963421
1086606.1138545957,3.82032712818356
1159119.6185988856,2.840086898020501
1236472.2350537176,2.6357276751814656
1318986.8961986692,6.316528295572529
1407008.0856026865,2.3589588109113855
1500903.2755797335,2.030792856165347
1601064.4613183178,1.8741576636541788
1707909.7973894302,1.7333190139343273
1821885.3434651652,1.6027824545656952
1943466.9265360222,1.855631750940509
2073162.1274012353,1.4556033935710486
2211512.399725489,1.183068127980193
2359095.3305086386,0.12424034975157905
2516527.051405389,1.0357483009668866
2684464.8109619655,1.0928341175265852
2863609.7185081216,1.109295852407943
3054709.6711599682,1.34146193071375
3258562.47615323,3.018316686653243
3476019.181541974,3.0783550025032933
3707987.6291681724,3.0189036855422735
3955436.2447347096,2.207498250181228
4219398.080805024,1.808147154163226
4500975.129608051,1.33469154563175
4801342.923653445,1.0716150557748017
5121755.443364241,3.2790956869857424
5463550.352214887,1.0267848208760602
5828154.58123084,1.1128644768079872
6217090.286163833,0.8642343265772314
6631981.2022126615,0.7848398562591277
7074559.422819879,0.7706245343957823
7546672.630843902,0.7547279820706109
8050291.812295972,0.5614514574335719
8587519.48484518,0.5665901448247815
9160598.475443728,0.6633284178682215
9771921.283717997,0.7300965890325976
10424040.07021558,0.7156843101127366
11119677.311206978,1.1224082383509402
11861737.164524792,1.0599230674554911
12653317.593889454,0.8479674767745558
13497723.302339418,0.923346424648578
14398479.528760096,0.9672738834313583
15359346.765108954,0.8867005560587128
16384336.455779847,0.9248169514836588
17477727.744646844,1.0600548334654918
18644085.339704853,1.0313335578908602
19888278.56988812,0.9950973781031432
21215501.71362448,1.0623894498444542
22631295.683995295,1.0096975065752705
24141571.16103023,0.9923447198258841
25752633.267711986,1.0194175131401508
27471207.892708145,1.024977890323514
29304469.769721385,1.0318516767254602
31260072.430687036,1.036184430623936
33346180.157863695,1.024561558831895
35571502.06821382,1.0066282329630276
37945328.472369425,0.985391463084626
40477569.65997331,0.9616734657622685
43178797.27332021,0.9253138701960983
46060288.442024074,0.8787171647579086
49134072.862963565,0.8289680623588325
52412983.02206062,0.7796094952507693
55910707.76755305,0.7321121278513232
59641849.4584246,0.6847631928569274
63621984.92657495,0.6385151694428576
67867730.50723287,0.594010065131407
72396811.40910877,0.5510826024764393
77228135.71388659,0.5101411961848026
82381873.31399602,0.47345443162772743
87879540.11821328,0.4385343832621097
93744087.87662981,0.38813556113833714
100000000.0,0.3400000000000001
